Incident energy;
Incident energy;
Incident energy;?(E)
1.0E-5;9829.302
1.0625E-5;9535.832
1.125E-5;9267.171
1.1875E-5;9020.009
1.25E-5;8791.625
1.375E-5;8382.499
1.5E-5;8025.646
1.625E-5;7710.804
1.75E-5;7430.33
1.875E-5;7178.392
2.0E-5;6950.46
2.1875E-5;6645.928
2.375E-5;6378.212
2.5625E-5;6140.446
2.75E-5;5927.432
2.9375E-5;5735.155
3.125E-5;5560.453
3.3125E-5;5400.803
3.5E-5;5254.161
3.875E-5;4993.485
4.25E-5;4768.122
4.625E-5;4570.757
5.0E-5;4396.035
5.3125E-5;4264.799
5.625E-5;4144.657
5.9375E-5;4034.13
6.25E-5;3932.0
6.875E-5;3749.046
7.5E-5;3589.469
8.125E-5;3448.679
8.75E-5;3323.259
9.375E-5;3210.6
1.0E-4;3108.676
1.0625E-4;3015.884
1.125E-4;2930.937
1.1875E-4;2852.789
1.25E-4;2780.578
1.375E-4;2651.222
1.5E-4;2538.394
1.625E-4;2438.851
1.75E-4;2350.175
1.875E-4;2270.523
2.0E-4;2198.461
2.1875E-4;2102.184
2.375E-4;2017.548
2.5625E-4;1942.382
2.75E-4;1875.043
2.9375E-4;1814.26
3.125E-4;1759.035
3.3125E-4;1708.569
3.5E-4;1662.215
3.875E-4;1579.819
4.25E-4;1508.588
4.625E-4;1446.209
5.0E-4;1390.989
5.3125E-4;1349.515
5.625E-4;1311.548
5.9375E-4;1276.621
6.25E-4;1244.349
6.875E-4;1186.54
7.5E-4;1136.122
8.125E-4;1091.643
8.75E-4;1052.023
9.375E-4;1016.437
0.001;984.2444
0.0010625;954.9385
0.001125;928.1123
0.0011875;903.4351
0.00125;880.6345
0.001375;839.795
0.0015;804.1794
0.001625;772.7621
0.00175;744.7791
0.001875;719.6476
0.002;696.9146
0.0021875;666.5485
0.002375;639.8605
0.0025625;616.1644
0.00275;594.9408
0.0029375;575.788
0.003125;558.3902
0.0033125;542.4953
0.0035;527.899
0.003875;501.9611
0.00425;479.5476
0.004625;459.9284
0.005;442.5691
0.0053125;429.5367
0.005625;417.6115
0.0059375;406.6456
0.00625;396.5172
0.006875;378.3842
0.0075;362.5804
0.008125;348.6481
0.00875;336.2473
0.009375;325.1192
0.01;315.0624
0.010625;305.9172
0.01125;297.5548
0.011875;289.87
0.0125;282.776
0.01375;270.0832
0.015;259.0275
0.01625;249.287
0.0175;240.6237
0.01875;232.8566
0.02;225.8442
0.021325;219.1104
0.02265;212.9921
0.023975;207.4037
0.0253;202.275
0.02684375;196.8019
0.0283875;191.7959
0.03108907;183.9725
0.03379063;177.127
0.03649219;171.0778
0.03919375;165.6896
0.04189532;160.8559
0.04459688;156.4916
0.04729844;152.5293
0.05;148.9155
0.053125;145.1129
0.05625;141.6589
0.0625;135.5957
0.06875;130.4314
0.075;125.9875
0.08125;122.1265
0.0875;118.7421
0.09375;115.7532
0.1;113.0979
0.10625;110.731
0.1125;108.6156
0.125;104.9749
0.1375;101.965
0.15;99.47188
0.1625;97.39797
0.175;95.66981
0.1875;94.23318
0.2;93.05117
0.21875;91.6649
0.2375;90.66529
0.25625;90.00085
0.275;89.6261
0.29375;89.50693
0.321875;89.75353
0.35;90.47917
0.3875;92.08847
0.425;94.3814
0.5;101.1197
0.5625;109.0831
0.625;119.5452
0.6875;133.19
0.75;150.8439
0.78125;161.6123
0.8125;174.1656
0.84375;188.7339
0.875;205.738
0.90625;225.7296
0.9375;249.4317
0.96875;277.7941
1.0;312.043
1.022942;341.9765
1.045883;377.0172
1.068825;418.2455
1.091766;467.2802
1.114708;526.5308
1.126179;560.8922
1.137649;599.0003
1.14912;641.4199
1.160591;688.8234
1.172062;742.0289
1.183532;802.0263
1.1991;896.5594
1.214667;1009.828
1.230235;1147.184
1.238019;1227.084
1.245802;1315.945
1.253586;1415.178
1.26137;1526.445
1.269154;1651.787
1.276937;1793.7
1.284721;1955.347
1.292504;2140.588
1.300288;2354.372
1.308071;2602.829
1.317084;2944.376
1.326097;3359.161
1.33511;3868.834
1.339616;4167.996
1.344122;4502.552
1.348629;4877.808
1.353135;5299.56
1.357642;5774.744
1.362148;6310.666
1.366655;6915.767
1.371161;7598.488
1.375667;8367.858
1.380173;9232.498
1.384389;10134.59
1.388605;11131.72
1.397036;13418.96
1.405468;16076.36
1.413899;19011.34
1.430762;24898.26
1.439194;27261.26
1.447625;28822.06
1.452313;29255.53
1.457;29349.56
1.463663;28894.59
1.470325;27792.75
1.476987;26145.27
1.483649;24093.03
1.510297;14832.77
1.518196;12469.67
1.526094;10437.96
1.533993;8738.458
1.541891;7343.156
1.54979;6209.127
1.557688;5291.087
1.565587;4546.657
1.573485;3940.135
1.579409;3557.909
1.585333;3226.776
1.591257;2938.507
1.597181;2686.321
1.603105;2464.638
1.609029;2268.86
1.620876;1940.505
1.632724;1677.905
1.644571;1464.8
1.656419;1289.5
1.668266;1143.554
1.679127;1030.164
1.689987;932.5512
1.700848;847.9126
1.711708;774.0832
1.722569;709.3127
1.733429;652.2079
1.755149;556.587
1.77687;480.2364
1.798591;418.3622
1.820312;367.6032
1.842032;325.4979
1.861778;293.1011
1.881524;265.159
1.90127;240.885
1.921016;219.6979
1.940762;201.1209
1.960508;184.7514
2.0;157.3587
2.028271;141.2507
2.056541;127.4567
2.084812;115.5564
2.113082;105.2242
2.141353;96.21836
2.169623;88.34875
2.226163;75.19813
2.282704;64.6861
2.339244;56.22933
2.395785;49.34367
2.452325;43.67707
2.530069;37.41402
2.607812;32.50039
2.685556;28.61183
2.763299;25.52515
2.841043;23.0867
2.918786;21.19473
2.99653;19.78958
3.074273;18.85184
3.130814;18.47676
3.187354;18.39328
3.235061;18.59119
3.282767;19.09275
3.330473;19.97593
3.378179;21.37323
3.402032;22.33951
3.425885;23.53865
3.449738;25.02389
3.473591;26.86677
3.497444;29.16512
3.521297;32.05587
3.54515;35.73913
3.569003;40.51777
3.586672;45.02981
3.604341;50.67226
3.62201;57.84775
3.630845;62.18816
3.639679;67.1594
3.648514;72.89124
3.657348;79.54531
3.666183;87.33044
3.675017;96.50928
3.683852;107.4203
3.692686;120.4857
3.701521;136.2368
3.710355;155.3121
3.71654;171.0476
3.722724;189.0667
3.728908;209.6753
3.735092;233.1803
3.741276;259.8755
3.74746;290.0192
3.753644;323.8069
3.759828;361.3398
3.768556;420.6017
3.777284;486.593
3.786012;557.862
3.794739;632.0612
3.812195;775.8355
3.820923;837.3023
3.82965;886.2727
3.839825;922.9269
3.85;934.0572
3.860175;918.5204
3.87035;878.0065
3.884104;791.2677
3.897858;681.5706
3.911612;564.8833
3.925366;454.3988
3.9362;377.3528
3.947033;311.2451
3.957866;256.3166
3.963283;232.8137
3.968699;211.7471
3.974116;192.9214
3.979532;176.1456
3.984949;161.2143
3.990365;147.9395
4.001198;125.628
4.012031;107.9117
4.021781;95.01773
4.031531;84.37934
4.041281;75.52042
4.05103;68.0733
4.06078;61.7528
4.070529;56.34168
4.080279;51.66972
4.090028;47.60614
4.109528;40.90946
4.129027;35.65231
4.148526;31.44319
4.168025;28.01732
4.187525;25.18936
4.207024;22.82639
4.226524;20.82977
4.246023;19.12529
4.265523;17.65577
4.285022;16.37766
4.324021;14.26962
4.36302;12.61313
4.402019;11.28573
4.441018;10.20351
4.480016;9.30907
4.545014;8.125611
4.610012;7.205224
4.67501;6.471739
4.740008;5.877388
4.805006;5.386951
4.870004;4.975879
4.935002;4.626994
5.0;4.329145
5.089579;3.981552
5.179157;3.68931
5.268735;3.442679
5.358313;3.23275
5.537469;2.898177
5.716625;2.654891
5.895782;2.469639
6.074938;2.339006
6.254094;2.256345
6.43325;2.216883
6.538188;2.227373
6.643125;2.282675
6.853;2.644886
6.907863;2.616794
6.962725;2.538729
7.017588;2.486893
7.07245;2.479857
7.2029;2.565561
7.33335;2.732351
7.4638;2.972448
7.59425;3.300577
7.7247;3.741628
7.789925;4.019134
7.85515;4.349449
7.920375;4.74246
7.9856;5.212748
8.050825;5.780672
8.11605;6.474035
8.173122;7.213443
8.230194;8.112246
8.287266;9.216441
8.344338;10.59697
8.40141;12.3627
8.429946;13.43646
8.458482;14.67088
8.487018;16.09944
8.515554;17.76517
8.54409;19.72386
8.572625;22.04873
8.601161;24.8384
8.629697;28.22876
8.658233;32.41322
8.686769;37.67478
8.701037;40.83502
8.715305;44.44047
8.729573;48.58344
8.743841;53.38269
8.758109;58.99359
8.772377;65.62282
8.786645;73.54974
8.800913;83.15681
8.812124;92.22155
8.823334;102.9842
8.834545;115.8825
8.845755;131.4676
8.856966;150.4347
8.868176;173.6283
8.879387;202.0615
8.890597;236.8859
8.900789;275.1594
8.91098;320.7315
8.921172;374.5316
8.931363;437.3166
8.941555;509.5916
8.951746;591.424
8.961938;682.3637
8.972129;781.2586
8.98334;896.9799
8.99455;1016.45
9.016971;1247.457
9.030229;1364.399
9.043486;1455.281
9.056743;1512.378
9.07;1530.619
9.0802;1517.054
9.089236;1485.548
9.098271;1437.119
9.116341;1298.049
9.134412;1121.017
9.152482;929.6546
9.173323;717.9196
9.183743;622.3305
9.194163;535.7993
9.204584;459.0273
9.215004;392.1131
9.225424;334.6525
9.235844;285.9179
9.245396;248.1219
9.254948;216.1081
9.2645;189.0999
9.274052;166.3595
9.283604;147.2132
9.293156;131.0651
9.302708;117.4014
9.31226;105.7872
9.321812;95.86079
9.331364;87.32482
9.340916;79.93689
9.350468;73.50057
9.369572;62.87827
9.388675;54.51876
9.406043;48.35527
9.42341;43.22744
9.440777;38.90661
9.458144;35.22579
9.475512;32.06013
9.492879;29.3152
9.510246;26.91758
9.527613;24.80984
9.562348;21.29027
9.597082;18.48634
9.631816;16.21569
9.66655;14.35126
9.708232;12.52304
9.749913;11.03462
9.791594;9.804071
9.833275;8.773633
9.874957;7.902399
9.916638;7.160046
9.958319;6.522907
10.0;5.972225
10.05387;5.364619
10.10774;4.851791
10.16161;4.415312
10.21547;4.041261
10.26934;3.718592
10.32321;3.4388
10.43094;2.982902
10.53868;2.635439
10.64641;2.365142
10.75415;2.157212
10.86188;2.003214
10.98501;1.887206
11.10813;1.834773
11.17354;1.837131
11.23895;1.866699
11.30436;1.929969
11.36977;2.037398
11.43518;2.206306
11.46789;2.322607
11.50059;2.467447
11.5333;2.649005
11.566;2.878304
11.59871;3.171202
11.63141;3.550559
11.65835;3.952463
11.68528;4.466189
11.71222;5.136726
11.72569;5.550728
11.73915;6.031364
11.75262;6.593393
11.76609;7.253614
11.77956;8.032638
11.79302;8.954075
11.80649;10.04733
11.81995;11.34198
11.83342;12.87312
11.84688;14.67149
11.86035;16.76947
11.87382;19.18798
11.88729;21.93641
11.90075;25.0033
11.92768;31.94132
11.95461;39.39051
11.97596;44.97457
11.99731;49.58152
12.01866;52.60094
12.02933;53.36873
12.04;53.59753
12.0575;52.79213
12.075;50.60461
12.0925;47.25172
12.11;43.04524
12.16419;28.32396
12.17774;24.94002
12.19129;21.84359
12.20484;19.06818
12.21838;16.625
12.23008;14.77313
12.24178;13.1475
12.25348;11.72977
12.26518;10.49915
12.27688;9.434049
12.28858;8.513406
12.30028;7.717483
12.31197;7.028926
12.32367;6.430727
12.33537;5.909764
12.34707;5.454271
12.35876;5.05461
12.38216;4.389021
12.40555;3.861899
12.42895;3.436783
12.45235;3.088653
12.47575;2.799521
12.49914;2.556448
12.52254;2.349627
12.54594;2.171985
12.59273;1.883748
12.63953;1.661163
12.68632;1.485309
12.73312;1.343617
12.77991;1.227617
12.84888;1.090965
12.91784;0.9836254
12.9868;0.897322
13.05576;0.8271132
13.12472;0.7699138
13.19368;0.7243491
13.26264;0.6911223
13.3316;0.6715033
13.371;0.6646629
13.4155;0.6562606
13.43775;0.6501815
13.5045;0.6199945
13.60808;0.5536224
13.65987;0.5249165
13.71166;0.5018165
13.81524;0.4669426
13.91882;0.4402373
14.12598;0.3984402
14.33313;0.3652299
14.54029;0.3380956
14.74744;0.3155712
15.16175;0.2799079
15.51454;0.2566022
15.86733;0.2381811
16.22012;0.2235588
16.57291;0.2120684
16.9257;0.2033118
17.27849;0.1970829
17.63128;0.1933396
17.98407;0.192203
18.48806;0.195834
18.74005;0.2002402
18.99204;0.2072598
19.24403;0.2163004
19.49602;0.2293487
19.74801;0.2471828
20.0;0.2713527
20.16807;0.2922443
20.33613;0.3182986
20.50419;0.3510451
20.67225;0.3927051
20.84032;0.446095
20.92435;0.4786973
21.00838;0.5165662
21.09241;0.5607327
21.17644;0.6125205
21.26047;0.6737302
21.3445;0.7467661
21.42854;0.8348747
21.51257;0.9424561
21.5966;1.07561
21.68063;1.242855
21.72265;1.343027
21.76466;1.457023
21.80668;1.587749
21.84869;1.738731
21.89071;1.914569
21.93272;2.120977
21.97474;2.365646
22.01675;2.658627
22.05877;3.013997
22.10079;3.451317
22.14281;3.999208
22.16382;4.327405
22.18482;4.701092
22.20583;5.130292
22.22684;5.62749
22.24785;6.209596
22.26885;6.899343
22.28986;7.729595
22.31087;8.745819
22.33188;10.0138
22.35288;11.62751
22.36405;12.6715
22.37521;13.87609
22.38637;15.27345
22.39753;16.90061
22.40869;18.80084
22.41985;21.02408
22.43101;23.62724
22.44217;26.67399
22.45333;30.23432
22.46449;34.38342
22.47565;39.19998
22.48681;44.76373
22.49797;51.1522
22.50913;58.43668
22.52029;66.67745
22.53145;75.91839
22.54393;87.46275
22.5564;100.2621
22.58135;129.3447
22.6063;161.8868
22.63124;195.5386
22.64174;209.2863
22.6705;242.8516
22.68488;256.094
22.69925;266.1453
22.71463;272.8479
22.73;275.0023
22.7505;270.6412
22.76732;261.1781
22.78413;247.0672
22.80095;229.1801
22.81776;208.597
22.83947;179.8302
22.86118;150.711
22.88289;123.1365
22.9046;98.4403
22.92464;78.84013
22.93466;70.26094
22.94468;62.48936
22.9547;55.50045
22.96472;49.25713
22.97474;43.71334
22.98476;38.81698
22.99478;34.51255
23.0048;30.74333
23.01482;27.45324
23.02484;24.58823
23.03486;22.09732
23.04488;19.93331
23.0549;18.05321
23.06491;16.41989
23.0741;15.10653
23.08328;13.94845
23.10165;12.01321
23.12002;10.47954
23.13839;9.246692
23.15676;8.240451
23.17513;7.406664
23.1935;6.705914
23.21187;6.109405
23.23024;5.595908
23.24861;5.149569
23.28535;4.412971
23.32209;3.832019
23.35882;3.364113
23.39556;2.980491
23.4323;2.661478
23.46904;2.3929
23.50578;2.164387
23.54252;1.968205
23.57926;1.79846
23.616;1.650578
23.65273;1.520974
23.72621;1.305402
23.79968;1.134618
23.87316;0.9970503
23.94663;0.8846542
24.02011;0.7914178
24.09359;0.7129838
24.16707;0.646324
24.24054;0.5892722
24.31402;0.5401031
24.38749;0.4974502
24.53444;0.4274796
24.6814;0.3729159
24.82835;0.3295398
24.9753;0.2945111
25.12225;0.265991
25.32265;0.2346298
25.52304;0.2095687
25.72343;0.1894089
25.92382;0.1729677
26.12421;0.1593951
26.3246;0.148075
26.52499;0.1385842
26.72538;0.130761
27.12616;0.1179409
27.52694;0.1085437
27.92772;0.1017802
28.3285;0.09726283
28.54225;0.09591099
28.756;0.09579607
28.96975;0.09787176
29.10335;0.1018708
29.17015;0.1057094
29.23694;0.1120591
29.27034;0.1168274
29.30374;0.1232455
29.33714;0.1319689
29.37054;0.1438415
29.40394;0.1598454
29.43734;0.1809437
29.47074;0.2077904
29.50413;0.2403142
29.57982;0.3264611
29.61766;0.3663123
29.6555;0.3953051
29.67775;0.404922
29.7;0.4080958
29.72068;0.4050577
29.74136;0.3964444
29.76204;0.3827985
29.78271;0.3649566
29.82406;0.3208335
29.86541;0.2727507
29.91317;0.2216492
29.93705;0.1998614
29.96092;0.1810314
29.9848;0.1651223
30.00867;0.1519391
30.03255;0.1411539
30.05642;0.1324153
30.0803;0.1253581
30.10418;0.1196605
30.15193;0.1112758
30.19968;0.1055967
30.24743;0.1015986
30.36204;0.09575811
30.47665;0.09261067
30.70586;0.08964587
31.01147;0.08857767
31.5845;0.08992611
32.15753;0.09390571
32.73056;0.1003761
33.30359;0.1097684
33.59011;0.1155584
33.87662;0.1226691
34.16314;0.1311236
34.44965;0.1411912
34.73617;0.1532443
35.02268;0.1677767
35.3092;0.1854564
35.59571;0.2071995
35.84403;0.2303167
36.09234;0.2585062
36.34065;0.2929566
36.58896;0.3368572
36.71312;0.3632467
36.83728;0.3932981
36.96144;0.4277196
37.08559;0.467398
37.20975;0.5134701
37.3339;0.5673808
37.45806;0.6310076
37.58221;0.706679
37.69682;0.7898577
37.81142;0.8895644
37.92603;1.011073
38.04063;1.161177
38.15524;1.349413
38.21254;1.461988
38.26984;1.589884
38.32715;1.736066
38.38445;1.904152
38.44175;2.09879
38.49905;2.325922
38.56113;2.617789
38.62321;2.970568
38.68529;3.403397
38.74737;3.943825
38.77841;4.266422
38.80945;4.632671
38.84049;5.051241
38.87153;5.533239
38.90257;6.093194
38.93361;6.750624
38.96465;7.532567
38.99568;8.477454
39.0315;9.847669
39.04941;10.68448
39.06731;11.65363
39.08522;12.78901
39.10313;14.1327
39.12104;15.73981
39.13894;17.67988
39.15685;20.04506
39.17476;22.94732
39.19267;26.52626
39.21057;30.94834
39.22848;36.4189
39.24639;43.16712
39.2643;51.45192
39.2822;61.54607
39.29653;71.12692
39.31085;82.18896
39.32518;94.87986
39.3395;109.2942
39.35383;125.5351
39.36815;143.6227
39.38248;163.5752
39.3968;185.2972
39.42068;225.0829
39.44455;268.2993
39.46843;313.2877
39.4923;357.7831
39.51857;403.0892
39.54483;441.0201
39.57226;469.1813
39.59968;482.8169
39.61;483.8437
39.62033;482.5775
39.63909;474.4978
39.65785;459.3458
39.67661;437.8689
39.69536;411.1057
39.71555;377.7599
39.73574;341.3207
39.77612;265.5838
39.81466;197.9671
39.83393;167.9871
39.8532;141.1654
39.87247;117.6694
39.89174;97.47788
39.91101;80.42428
39.93028;66.24133
39.94772;55.60812
39.96516;46.79938
39.9826;39.5563
40.00003;33.63651
40.01747;28.80937
40.0349;24.88278
40.05234;21.68203
40.06977;19.06783
40.08721;16.91921
40.10465;15.14217
40.12209;13.66024
40.13952;12.41366
40.15696;11.3537
40.17439;10.44474
40.19183;9.657146
40.20926;8.969647
40.23129;8.216805
40.25331;7.569713
40.27534;7.008271
40.29736;6.518399
40.34141;5.710602
40.38545;5.084077
40.4295;4.598164
40.47355;4.22301
40.5176;3.932028
40.56164;3.698556
40.65775;3.262129
40.89968;2.003076
40.95141;1.778145
41.00313;1.591974
41.05486;1.440597
41.10658;1.317039
41.15831;1.214269
41.21003;1.126837
41.31348;0.9838588
41.41693;0.8702256
41.52038;0.7771808
41.62383;0.6996245
41.72728;0.6342149
41.84162;0.573114
41.95596;0.521209
42.0703;0.4765952
42.18464;0.4380403
42.29898;0.4045943
42.41332;0.3754497
42.64199;0.3275449
42.87067;0.2904062
43.09935;0.2614471
43.32803;0.2389371
43.5567;0.2217361
43.73094;0.2117475
43.90517;0.2042689
44.0794;0.1992666
44.25363;0.1968526
44.41698;0.197203
44.58032;0.2005471
44.74366;0.2076323
44.907;0.2196412
45.07035;0.2388511
45.15202;0.2523962
45.23369;0.2695733
45.31536;0.2915174
45.39703;0.3199109
45.4787;0.3573785
45.51954;0.3807731
45.56037;0.4082622
45.6121;0.4506972
45.66382;0.5046757
45.71555;0.5754443
45.74141;0.6197387
45.76727;0.6721705
45.79314;0.7352308
45.819;0.8123445
45.84486;0.9084401
45.87072;1.030416
45.89659;1.187922
45.90952;1.283868
45.92245;1.393889
45.93538;1.520286
45.94831;1.665669
45.96124;1.832966
45.97417;2.025426
45.98711;2.246795
46.00004;2.500583
46.01297;2.791049
46.0259;3.122478
46.03883;3.499256
46.05176;3.925766
46.06469;4.406249
46.07762;4.944653
46.09055;5.544449
46.10348;6.208434
46.12934;7.735515
46.1552;9.526673
46.18106;11.55856
46.23551;16.3516
46.28996;21.03323
46.31174;22.59513
46.33352;23.85738
46.36176;24.93883
46.39;25.30304
46.40995;25.10651
46.4299;24.54326
46.44773;23.75143
46.46555;22.71871
46.5012;20.08441
46.56024;14.88675
46.58976;12.30755
46.61927;9.942306
46.64551;8.09067
46.67175;6.507029
46.68487;5.817437
46.69799;5.194212
46.71111;4.634719
46.72422;4.135915
46.73734;3.693094
46.75046;3.302351
46.76358;2.959196
46.7767;2.659103
46.78982;2.397623
46.80294;2.170487
46.81606;1.973671
46.82917;1.80356
46.85049;1.574955
46.87181;1.394906
46.89313;1.252913
46.91444;1.140598
46.93576;1.051237
46.95708;0.9797794
46.9784;0.922329
46.99971;0.8759686
47.04235;0.8081714
47.08498;0.7647174
47.12762;0.7390855
47.17025;0.7277099
47.23257;0.733144
47.29488;0.7636018
47.3572;0.821397
47.38836;0.8624515
47.41951;0.9133618
47.45067;0.9762089
47.48183;1.053926
47.51299;1.150829
47.54414;1.2733
47.5753;1.431109
47.60646;1.638908
47.62204;1.768091
47.63762;1.918805
47.6532;2.09549
47.66877;2.303329
47.68353;2.534936
47.69829;2.806605
47.71305;3.125598
47.72781;3.500178
47.74257;3.939619
47.75733;4.454157
47.77209;5.054889
47.78684;5.753086
47.8016;6.561888
47.81636;7.493117
47.83112;8.558648
47.84587;9.768542
47.86063;11.13379
47.87539;12.66068
47.89015;14.35325
47.9049;16.21041
47.9213;18.46443
47.9377;20.90435
47.9705;26.2438
48.03609;37.56815
48.06889;42.61435
48.10169;46.54486
48.13085;48.73147
48.16;49.46354
48.17695;49.18621
48.1939;48.39989
48.21251;46.98251
48.23111;45.04179
48.26831;39.90245
48.32089;31.02769
48.37347;22.1399
48.39801;18.43493
48.42255;15.14176
48.44709;12.29837
48.45936;11.04708
48.47163;9.906551
48.4839;8.872815
48.49617;7.940785
48.50844;7.104544
48.52071;6.357597
48.53298;5.693109
48.54525;5.10411
48.55752;4.583661
48.56978;4.125353
48.58118;3.748877
48.59257;3.415514
48.60396;3.120329
48.61535;2.859072
48.62675;2.627654
48.63814;2.422931
48.66092;2.080457
48.68371;1.809599
48.70649;1.593547
48.72928;1.419006
48.75206;1.276222
48.77485;1.157661
48.79763;1.057926
48.82042;0.9728511
48.8432;0.8994812
48.88877;0.7791949
48.93434;0.6846798
48.97992;0.6084625
49.02549;0.545812
49.07106;0.4935004
49.11663;0.449268
49.1622;0.4114708
49.20777;0.3788792
49.25334;0.3505533
49.29891;0.3257611
49.39006;0.2845705
49.4812;0.2518939
49.57234;0.2254357
49.66348;0.2036405
49.74761;0.186733
49.83174;0.1722854
49.91587;0.1598386
50.0;0.1490309
50.13549;0.1343648
50.27097;0.1223276
50.40646;0.1123061
50.54194;0.1038681
50.67743;0.09670106
50.81291;0.0905735
51.08388;0.08058026
51.35485;0.07277304
51.62582;0.06658906
51.89679;0.0615998
52.16775;0.05751148
52.64195;0.0519629
53.11615;0.04790358
53.59035;0.04478672
54.06454;0.04243798
54.53874;0.04069589
55.01293;0.03946129
55.48713;0.03867796
