Incident energy;
Incident energy;
Incident energy;?(E)
339151.4;0.0
344178.0;2.420335E-4
349204.5;4.805529E-4
359257.5;9.474612E-4
379363.6;0.001843314
399469.7;0.002692892
419575.7;0.003500738
459787.9;0.005006359
500000.0;0.00638566
551120.5;0.008503425
602241.0;0.0104332
610883.4;0.01213762
619525.8;0.01381809
636810.5;0.01710982
671380.0;0.02343339
700000.0;0.028427
750000.0;0.03568438
800000.0;0.0424732
835672.0;0.0473134
844650.0;0.04955196
853628.0;0.05176686
871584.0;0.05612761
885792.0;0.05961074
900000.0;0.06303843
920897.5;0.06781338
941795.0;0.07248119
949462.0;0.08697128
962096.5;0.1048033
974731.0;0.1224026
1000000.0;0.1569271
1043730.0;0.1988506
1087460.0;0.2390531
1087464.0;0.2390552
1101208.0;0.2503624
1114952.0;0.2615294
1142440.0;0.2834561
1142442.0;0.2834571
1155887.0;0.3059018
1169331.0;0.3280853
1196220.0;0.3716989
1250000.0;0.4560625
1301830.0;0.5077669
1317908.0;0.5286614
1333985.0;0.5493013
1366140.0;0.5898465
1398295.0;0.6294484
1430450.0;0.6681498
1445935.0;0.6899684
1461420.0;0.7115544
1475340.0;0.7367421
1498840.0;0.7757073
1498844.0;0.7757094
1500000.0;0.7794429
1513170.0;0.8040692
1542774.0;0.8459446
1572378.0;0.8870242
1601982.0;0.9273377
1631585.0;0.9669113
1661189.0;1.005775
1690793.0;1.043952
1720397.0;1.081466
1750000.0;1.118339
1781250.0;1.148471
1812500.0;1.178078
1843750.0;1.20718
1875000.0;1.235792
1906250.0;1.263932
1937500.0;1.291613
1968750.0;1.318852
2000000.0;1.345662
2014047.0;1.353859
2028094.0;1.361998
2042141.0;1.370082
2056187.0;1.378109
2070234.0;1.386083
2084280.0;1.394001
2098327.0;1.401867
2112373.0;1.409681
2126420.0;1.417443
2140466.0;1.425153
2154513.0;1.432814
2168559.0;1.440424
2182606.0;1.447985
2196652.0;1.455498
2210699.0;1.462963
2224745.0;1.47038
2238792.0;1.477751
2252839.0;1.485076
2266886.0;1.492356
2280932.0;1.49959
2294979.0;1.50678
2309025.0;1.513926
2323072.0;1.521029
2337118.0;1.528088
2351165.0;1.535106
2365211.0;1.542081
2379258.0;1.549016
2393304.0;1.55591
2407351.0;1.562763
2421397.0;1.569576
2435444.0;1.576351
2449490.0;1.583085
2466694.0;1.591282
2483897.0;1.599421
2501101.0;1.607504
2518304.0;1.615532
2535508.0;1.623505
2552711.0;1.631425
2569915.0;1.63929
2587118.0;1.647104
2604322.0;1.654866
2621525.0;1.662577
2638729.0;1.670237
2655932.0;1.677847
2673136.0;1.685409
2690339.0;1.692921
2707542.0;1.700386
2724745.0;1.707804
2741949.0;1.715174
2759152.0;1.722499
2776356.0;1.729778
2793559.0;1.737012
2810763.0;1.744203
2827966.0;1.751349
2845170.0;1.758452
2862373.0;1.765511
2879577.0;1.772529
2896780.0;1.779504
2913984.0;1.786439
2931187.0;1.793332
2948391.0;1.800186
2965594.0;1.806999
2982797.0;1.813773
3000000.0;1.820508
3012027.0;1.823299
3024054.0;1.826079
3036081.0;1.828848
3048107.0;1.831606
3060134.0;1.834354
3072160.0;1.83709
3084187.0;1.839816
3096213.0;1.84253
3108240.0;1.845235
3120266.0;1.847929
3132293.0;1.850613
3144319.0;1.853286
3156346.0;1.85595
3168372.0;1.858603
3180399.0;1.861245
3192425.0;1.863878
3204452.0;1.866502
3216479.0;1.869115
3228506.0;1.871719
3240532.0;1.874312
3252559.0;1.876897
3264585.0;1.879472
3276612.0;1.882036
3288638.0;1.884592
3300665.0;1.887139
3312691.0;1.889676
3324718.0;1.892205
3336744.0;1.894724
3348771.0;1.897233
3360797.0;1.899734
3372824.0;1.902226
3384850.0;1.904709
3396877.0;1.907184
3408904.0;1.909649
3420931.0;1.912106
3432957.0;1.914554
3444984.0;1.916993
3457010.0;1.919425
3469037.0;1.921848
3481063.0;1.924262
3493090.0;1.926668
3505116.0;1.929066
3517143.0;1.931455
3529169.0;1.933836
3541196.0;1.93621
3553222.0;1.938576
3565249.0;1.940932
3577275.0;1.943282
3589302.0;1.945623
3601329.0;1.947957
3613356.0;1.950282
3625382.0;1.952601
3637409.0;1.954911
3649435.0;1.957214
3661462.0;1.959509
3673488.0;1.961796
3685515.0;1.964077
3697541.0;1.966349
3709568.0;1.968615
3721594.0;1.970873
3733621.0;1.973124
3745647.0;1.975368
3757674.0;1.977604
3769700.0;1.979833
3784094.0;1.982491
3798488.0;1.98514
3812882.0;1.987778
3827275.0;1.990407
3841669.0;1.993025
3856063.0;1.995634
3870457.0;1.998234
3884850.0;2.000823
3899244.0;2.003403
3913638.0;2.005974
3928032.0;2.008535
3942425.0;2.011087
3956819.0;2.013629
3971213.0;2.016162
3985607.0;2.018687
4000000.0;2.021201
4017015.0;2.021553
4034030.0;2.021904
4051045.0;2.022253
4068060.0;2.0226
4085075.0;2.022947
4102090.0;2.023291
4119105.0;2.023635
4136120.0;2.023976
4153135.0;2.024316
4170150.0;2.024656
4187165.0;2.024993
4204180.0;2.025329
4221195.0;2.025665
4238210.0;2.025999
4255225.0;2.026331
4272240.0;2.026662
4289255.0;2.026991
4306270.0;2.02732
4323285.0;2.027647
4340300.0;2.027973
4357315.0;2.028297
4374330.0;2.02862
4391345.0;2.028942
4408360.0;2.029263
4425375.0;2.029582
4442390.0;2.029901
4459405.0;2.030218
4476420.0;2.030534
4493435.0;2.030849
4510450.0;2.031162
4527465.0;2.031474
4544480.0;2.031785
4558715.0;2.032044
4572950.0;2.032303
4587185.0;2.032561
4601420.0;2.032818
4615655.0;2.033074
4629890.0;2.033329
4644125.0;2.033585
4658360.0;2.033838
4672595.0;2.034091
4686830.0;2.034343
4701065.0;2.034595
4715300.0;2.034846
4729535.0;2.035096
4743770.0;2.035345
4758005.0;2.035593
4772240.0;2.035841
4786475.0;2.036088
4800710.0;2.036335
4814945.0;2.03658
4829180.0;2.036825
4843415.0;2.037069
4857650.0;2.037313
4871885.0;2.037555
4886120.0;2.037797
4900355.0;2.038038
4914590.0;2.038278
4928825.0;2.038518
4943060.0;2.038758
4957295.0;2.038996
4971530.0;2.039235
4985765.0;2.039471
5000000.0;2.039708
5015625.0;2.038368
5031250.0;2.037033
5046875.0;2.035703
5062500.0;2.034376
5078125.0;2.033054
5093750.0;2.031735
5109375.0;2.030421
5125000.0;2.02911
5140625.0;2.027804
5156250.0;2.026501
5171875.0;2.025203
5187500.0;2.023908
5203125.0;2.022618
5218750.0;2.021331
5234375.0;2.020047
5250000.0;2.018768
5265625.0;2.017493
5281250.0;2.016221
5296875.0;2.014953
5312500.0;2.01369
5328125.0;2.012428
5343750.0;2.011172
5359375.0;2.009919
5375000.0;2.008669
5390625.0;2.007424
5406250.0;2.006181
5421875.0;2.004943
5437500.0;2.003708
5453125.0;2.002476
5468750.0;2.001249
5484375.0;2.000024
5500000.0;1.998803
5515625.0;1.997586
5531250.0;1.996372
5546875.0;1.995161
5562500.0;1.993954
5578125.0;1.992749
5593750.0;1.991549
5609375.0;1.990352
5625000.0;1.989158
5640625.0;1.987968
5656250.0;1.986781
5671875.0;1.985597
5687500.0;1.984416
5703125.0;1.983239
5718750.0;1.982064
5734375.0;1.980893
5750000.0;1.979726
5765625.0;1.978561
5781250.0;1.977399
5796875.0;1.976241
5812500.0;1.975086
5828125.0;1.973933
5843750.0;1.972784
5859375.0;1.971638
5875000.0;1.970495
5890625.0;1.969356
5906250.0;1.968219
5921875.0;1.967085
5937500.0;1.965954
5953125.0;1.964826
5968750.0;1.963701
5984375.0;1.962579
6000000.0;1.96146
6027340.0;1.958901
6054680.0;1.956354
6082020.0;1.953818
6109359.0;1.951294
6136699.0;1.94878
6164039.0;1.946279
6191379.0;1.943788
6218718.0;1.941308
6246058.0;1.938839
6273398.0;1.936381
6300738.0;1.933933
6328077.0;1.931496
6355417.0;1.92907
6382756.0;1.926654
6410096.0;1.924248
6437435.0;1.921853
6464775.0;1.919468
6492115.0;1.917092
6519455.0;1.914726
6546794.0;1.912371
6574134.0;1.910026
6601474.0;1.90769
6628814.0;1.905363
6656153.0;1.903047
6683493.0;1.90074
6710833.0;1.898443
6738173.0;1.896154
6765512.0;1.893875
6792852.0;1.891606
6820191.0;1.889344
6847531.0;1.887092
6874870.0;1.88485
6890512.0;1.883571
6906153.0;1.882295
6921794.0;1.881021
6937435.0;1.879752
6953077.0;1.878483
6968718.0;1.877219
6984359.0;1.875957
7000000.0;1.874698
7013433.0;1.873866
7026865.0;1.873036
7040297.0;1.872206
7053729.0;1.871379
7067162.0;1.870553
7080594.0;1.86973
7094026.0;1.868906
7107458.0;1.868086
7120891.0;1.867266
7134323.0;1.866448
7147755.0;1.865631
7161187.0;1.864816
7174619.0;1.864003
7188051.0;1.863191
7201483.0;1.862382
7214915.0;1.861573
7228348.0;1.860765
7241780.0;1.859959
7255212.0;1.859155
7268644.0;1.858352
7282077.0;1.85755
7295509.0;1.856751
7308941.0;1.855953
7322373.0;1.855155
7335806.0;1.85436
7349238.0;1.853566
7362670.0;1.852773
7376102.0;1.851982
7389534.0;1.851192
7402966.0;1.850404
7416398.0;1.849617
7429830.0;1.848832
7443200.0;1.848052
7456570.0;1.847273
7469940.0;1.846495
7483310.0;1.845719
7499457.0;1.844783
7515604.0;1.843849
7531751.0;1.842918
7547897.0;1.841988
7564044.0;1.841061
7580190.0;1.840136
7596337.0;1.839212
7612483.0;1.838291
7628630.0;1.837371
7644776.0;1.836454
7660923.0;1.835538
7677069.0;1.834624
7693216.0;1.833712
7709362.0;1.832801
7725509.0;1.831894
7741655.0;1.830987
7757802.0;1.830083
7773949.0;1.82918
7790096.0;1.82828
7806242.0;1.827381
7822389.0;1.826485
7838535.0;1.82559
7854682.0;1.824697
7870828.0;1.823805
7886975.0;1.822916
7903121.0;1.822028
7919268.0;1.821142
7935414.0;1.820257
7951561.0;1.819376
7967707.0;1.818495
7983854.0;1.817616
8000000.0;1.816739
8015165.0;1.816343
8030330.0;1.815946
8045495.0;1.815551
8060660.0;1.815157
8075825.0;1.814763
8090990.0;1.814369
8106155.0;1.813977
8121320.0;1.813585
8136485.0;1.813195
8151650.0;1.812804
8166815.0;1.812415
8181980.0;1.812026
8197145.0;1.811638
8212310.0;1.811251
8227475.0;1.810864
8242640.0;1.810478
8257805.0;1.810093
8272970.0;1.809708
8288135.0;1.809325
8303300.0;1.808941
8318465.0;1.808559
8333630.0;1.808178
8348795.0;1.807796
8363960.0;1.807417
8379125.0;1.807037
8394290.0;1.806658
8409455.0;1.80628
8424620.0;1.805902
8439785.0;1.805525
8454950.0;1.805149
8470115.0;1.804774
8485280.0;1.804399
8501365.0;1.804002
8517450.0;1.803605
8533535.0;1.803211
8549620.0;1.802816
8565705.0;1.802422
8581790.0;1.802029
8597875.0;1.801636
8613960.0;1.801245
8630045.0;1.800854
8646130.0;1.800463
8662215.0;1.800074
8678300.0;1.799685
8694385.0;1.799298
8710470.0;1.79891
8726555.0;1.798524
8742640.0;1.798137
8758725.0;1.797752
8774810.0;1.797368
8790895.0;1.796984
8806980.0;1.796601
8823065.0;1.796218
8839150.0;1.795837
8855235.0;1.795456
8871320.0;1.795076
8887405.0;1.794696
8903490.0;1.794318
8919575.0;1.793939
8935660.0;1.793561
8951745.0;1.793185
8967830.0;1.792809
8983915.0;1.792433
9000000.0;1.792058
9015060.0;1.786357
9030120.0;1.780664
9045180.0;1.774981
9060240.0;1.769307
9075300.0;1.763644
9090360.0;1.75799
9105420.0;1.752344
9120480.0;1.746708
9140387.0;1.739273
9160293.0;1.731854
9180199.0;1.724451
9200105.0;1.717064
9220012.0;1.709693
9239918.0;1.702338
9259824.0;1.694999
9279730.0;1.687676
9299637.0;1.680368
9319543.0;1.673076
9339449.0;1.6658
9359355.0;1.658539
9379262.0;1.651292
9399168.0;1.644062
9419074.0;1.636847
9438980.0;1.629647
9462905.0;1.621015
9486830.0;1.612403
9502867.0;1.606643
9518904.0;1.600892
9534941.0;1.595152
9550977.0;1.589421
9567014.0;1.5837
9583050.0;1.577988
9599087.0;1.572286
9615123.0;1.566594
9631160.0;1.56091
9647196.0;1.555237
9663233.0;1.549572
9679269.0;1.543918
9695306.0;1.538272
9711342.0;1.532636
9727379.0;1.527009
9743415.0;1.521391
9759452.0;1.515783
9775489.0;1.510184
9791526.0;1.504593
9807562.0;1.499013
9823599.0;1.493441
9839635.0;1.487878
9855672.0;1.482325
9871708.0;1.476781
9887745.0;1.471245
9903781.0;1.465719
9919818.0;1.460201
9935854.0;1.454692
9951891.0;1.449192
9967927.0;1.443702
9983964.0;1.438219
1.0E7;1.432746
1.001526E7;1.424849
1.003051E7;1.416968
1.004577E7;1.409094
1.006102E7;1.401237
1.007628E7;1.393387
1.009153E7;1.385555
1.010678E7;1.377733
1.012203E7;1.369925
1.013729E7;1.362122
1.015254E7;1.354336
1.016779E7;1.346562
1.018304E7;1.3388
1.01983E7;1.331044
1.021355E7;1.323305
1.02288E7;1.315577
1.024405E7;1.307861
1.025931E7;1.300152
1.027456E7;1.292458
1.028982E7;1.284771
1.030507E7;1.277101
1.032033E7;1.269437
1.033558E7;1.261789
1.035083E7;1.254153
1.036608E7;1.246527
1.038134E7;1.238909
1.039659E7;1.231305
1.041184E7;1.223714
1.042709E7;1.216134
1.044235E7;1.208558
1.04576E7;1.201
1.047285E7;1.193453
1.04881E7;1.185916
1.05E7;1.180043
1.051525E7;1.172527
1.053049E7;1.165025
1.054574E7;1.15753
1.056098E7;1.150051
1.057623E7;1.142576
1.059147E7;1.135119
1.060671E7;1.127672
1.062195E7;1.120235
1.06372E7;1.112804
1.065244E7;1.10539
1.066769E7;1.097979
1.068293E7;1.090586
1.069818E7;1.083198
1.071342E7;1.075824
1.072866E7;1.068462
1.07439E7;1.061109
1.075915E7;1.053763
1.077439E7;1.046432
1.078964E7;1.039106
1.080488E7;1.031796
1.082013E7;1.024491
1.083537E7;1.0172
1.085061E7;1.009921
1.086585E7;1.002652
1.08811E7;0.9953876
1.089634E7;0.9881385
1.091159E7;0.9808947
1.092683E7;0.9736658
1.094208E7;0.9664423
1.095732E7;0.9592335
1.097256E7;0.9520348
1.09878E7;0.944846
1.1E7;0.9390985
1.101529E7;0.9319041
1.103057E7;0.9247245
1.104586E7;0.9175501
1.106114E7;0.9103902
1.107643E7;0.9032357
1.109171E7;0.8960955
1.1107E7;0.8889607
1.112228E7;0.8818403
1.113757E7;0.8747249
1.115285E7;0.8676241
1.116814E7;0.8605283
1.118342E7;0.8534468
1.119871E7;0.8463704
1.121399E7;0.8393083
1.122927E7;0.8322557
1.124455E7;0.8252127
1.125984E7;0.8181748
1.127512E7;0.811151
1.129041E7;0.804132
1.130569E7;0.7971272
1.132098E7;0.7901273
1.133626E7;0.7831413
1.135155E7;0.7761602
1.136683E7;0.7691931
1.138212E7;0.7622309
1.13974E7;0.7552823
1.141269E7;0.7483387
1.142797E7;0.7414089
1.144326E7;0.7344837
1.145854E7;0.7275724
1.147382E7;0.7206704
1.14891E7;0.7137774
1.15E7;0.7088659
1.151563E7;0.7018313
1.153125E7;0.6948106
1.154688E7;0.6877951
1.15625E7;0.6807933
1.157813E7;0.6737967
1.159375E7;0.666814
1.160938E7;0.6598361
1.1625E7;0.6528721
1.164063E7;0.645913
1.165625E7;0.6389678
1.167188E7;0.6320273
1.16875E7;0.6251006
1.170313E7;0.6181787
1.171875E7;0.6112705
1.173438E7;0.604367
1.175E7;0.5974772
1.176563E7;0.5905921
1.178125E7;0.5837205
1.179688E7;0.5768536
1.18125E7;0.5700003
1.182813E7;0.5631516
1.184375E7;0.5563163
1.185938E7;0.5494857
1.1875E7;0.5426684
1.189063E7;0.5358557
1.190625E7;0.5290564
1.192188E7;0.5222616
1.19375E7;0.5154801
1.195313E7;0.5087029
1.196875E7;0.5019391
1.198438E7;0.4951798
1.2E7;0.4884336
1.203125E7;0.4838707
1.20625E7;0.4793194
1.209375E7;0.4747801
1.2125E7;0.4702525
1.215625E7;0.4657365
1.21875E7;0.461232
1.221875E7;0.4567392
1.225E7;0.4522578
1.228125E7;0.4477879
1.23125E7;0.4433292
1.234375E7;0.4388819
1.2375E7;0.4344459
1.240625E7;0.430021
1.24375E7;0.4256072
1.246875E7;0.4212046
1.25E7;0.416813
1.253125E7;0.4124323
1.25625E7;0.4080625
1.259375E7;0.4037036
1.2625E7;0.3993555
1.265625E7;0.3950181
1.26875E7;0.3906914
1.271875E7;0.3863754
1.275E7;0.38207
1.278125E7;0.3777751
1.28125E7;0.3734907
1.284375E7;0.3692167
1.2875E7;0.3649532
1.290625E7;0.3606999
1.29375E7;0.356457
1.296875E7;0.3522242
1.3E7;0.3480017
1.30625E7;0.339587
1.3125E7;0.3312125
1.31875E7;0.3228777
1.325E7;0.3145823
1.33125E7;0.3063261
1.3375E7;0.2981084
1.34375E7;0.2899291
1.35E7;0.2817877
1.354233E7;0.2762951
1.358465E7;0.270821
1.362698E7;0.2653625
1.36693E7;0.2599223
1.368997E7;0.2572713
1.371064E7;0.2546243
1.373131E7;0.2519813
1.375198E7;0.2493423
1.377265E7;0.2467071
1.379332E7;0.244076
1.381399E7;0.2414488
1.383465E7;0.2388269
1.385532E7;0.2362075
1.387599E7;0.2335921
1.389666E7;0.2309806
1.391733E7;0.2283728
1.3938E7;0.2257691
1.395867E7;0.2231692
1.397934E7;0.2205731
1.4E7;0.2179821
1.40358E7;0.2161061
1.406482E7;0.2145888
1.409383E7;0.2130752
1.412284E7;0.2115648
1.415185E7;0.2100574
1.418087E7;0.2085526
1.420988E7;0.2070514
1.423889E7;0.2055532
1.42679E7;0.2040581
1.429692E7;0.2025656
1.432593E7;0.2010765
1.435494E7;0.1995905
1.438395E7;0.1981075
1.441297E7;0.1966269
1.444198E7;0.1951499
1.447099E7;0.1936758
1.45E7;0.1922046
1.45625E7;0.1890451
1.4625E7;0.185899
1.46875E7;0.1827665
1.475E7;0.1796472
1.48125E7;0.1765412
1.4875E7;0.1734482
1.49375E7;0.1703682
1.5E7;0.167301
1.5125E7;0.1643681
1.525E7;0.1614593
1.5375E7;0.1585742
1.55E7;0.1557125
1.5625E7;0.1528738
1.575E7;0.1500577
1.5875E7;0.1472639
1.6E7;0.144492
1.601452E7;0.1442877
1.602904E7;0.1440836
1.604356E7;0.1438797
1.605807E7;0.1436761
1.607259E7;0.1434726
1.60871E7;0.1432694
1.610162E7;0.1430662
1.611613E7;0.1428634
1.613065E7;0.1426606
1.614516E7;0.1424581
1.615968E7;0.1422556
1.617419E7;0.1420535
1.618871E7;0.1418514
1.620322E7;0.1416497
1.621774E7;0.1414479
1.623225E7;0.1412465
1.624677E7;0.1410452
1.626129E7;0.140844
1.627581E7;0.140643
1.629032E7;0.1404423
1.630484E7;0.1402417
1.631935E7;0.1400414
1.633387E7;0.1398411
1.634838E7;0.1396411
1.63629E7;0.1394412
1.637741E7;0.1392416
1.639193E7;0.139042
1.640644E7;0.1388428
1.642096E7;0.1386435
1.643547E7;0.1384446
1.644999E7;0.1382458
1.64645E7;0.1380472
1.648225E7;0.1378045
1.65E7;0.1375622
1.651563E7;0.1373489
1.653125E7;0.137136
1.654688E7;0.1369232
1.65625E7;0.1367107
1.657813E7;0.1364983
1.659375E7;0.1362862
1.660938E7;0.1360742
1.6625E7;0.1358625
1.664063E7;0.1356509
1.665625E7;0.1354396
1.667188E7;0.1352284
1.66875E7;0.1350175
1.670313E7;0.1348066
1.671875E7;0.1345961
1.673438E7;0.1343857
1.675E7;0.1341756
1.676563E7;0.1339655
1.678125E7;0.1337558
1.679688E7;0.1335462
1.68125E7;0.1333368
1.682813E7;0.1331276
1.684375E7;0.1329186
1.685938E7;0.1327098
1.6875E7;0.1325012
1.689063E7;0.1322927
1.690625E7;0.1320846
1.692188E7;0.1318765
1.69375E7;0.1316687
1.695313E7;0.131461
1.696875E7;0.1312536
1.698438E7;0.1310462
1.7E7;0.1308392
1.701563E7;0.1306322
1.703125E7;0.1304256
1.704688E7;0.130219
1.70625E7;0.1300128
1.707813E7;0.1298066
1.709375E7;0.1296007
1.710938E7;0.1293949
1.7125E7;0.1291894
1.714063E7;0.1289839
1.715625E7;0.1287788
1.717188E7;0.1285737
1.71875E7;0.128369
1.720313E7;0.1281642
1.721875E7;0.1279599
1.723438E7;0.1277555
1.725E7;0.1275515
1.726563E7;0.1273476
1.728125E7;0.1271439
1.729688E7;0.1269403
1.73125E7;0.126737
1.732813E7;0.1265338
1.734375E7;0.1263309
1.735938E7;0.126128
1.7375E7;0.1259255
1.739063E7;0.125723
1.740625E7;0.1255208
1.742188E7;0.1253187
1.74375E7;0.1251169
1.745313E7;0.1249151
1.746875E7;0.1247137
1.748438E7;0.1245122
1.75E7;0.1243111
1.751563E7;0.1241101
1.753125E7;0.1239094
1.754688E7;0.1237087
1.75625E7;0.1235083
1.757813E7;0.123308
1.759375E7;0.1231079
1.760938E7;0.1229079
1.7625E7;0.1227083
1.764063E7;0.1225087
1.765625E7;0.1223093
1.767188E7;0.1221101
1.76875E7;0.1219111
1.770313E7;0.1217122
1.771875E7;0.1215136
1.773438E7;0.121315
1.775E7;0.1211167
1.776563E7;0.1209185
1.778125E7;0.1207206
1.779688E7;0.1205227
1.78125E7;0.1203252
1.782813E7;0.1201276
1.784375E7;0.1199304
1.785938E7;0.1197332
1.7875E7;0.1195364
1.789063E7;0.1193395
1.790625E7;0.119143
1.792188E7;0.1189465
1.79375E7;0.1187503
1.795313E7;0.1185542
1.796875E7;0.1183583
1.798438E7;0.1181625
1.8E7;0.117967
1.801563E7;0.1178386
1.803125E7;0.1177104
1.804688E7;0.1175822
1.80625E7;0.1174542
1.807813E7;0.1173262
1.809375E7;0.1171985
1.810938E7;0.1170707
1.8125E7;0.1169432
1.814063E7;0.1168157
1.815625E7;0.1166883
1.817188E7;0.116561
1.81875E7;0.1164339
1.820313E7;0.1163069
1.821875E7;0.11618
1.823438E7;0.1160531
1.825E7;0.1159264
1.826563E7;0.1157998
1.828125E7;0.1156733
1.829688E7;0.1155469
1.83125E7;0.1154206
1.832813E7;0.1152944
1.834375E7;0.1151684
1.835938E7;0.1150424
1.8375E7;0.1149166
1.839063E7;0.1147908
1.840625E7;0.1146652
1.842188E7;0.1145396
1.84375E7;0.1144142
1.845313E7;0.1142889
1.846875E7;0.1141637
1.848438E7;0.1140386
1.85E7;0.1139136
1.851563E7;0.1137887
1.853125E7;0.1136639
1.854688E7;0.1135392
1.85625E7;0.1134147
1.857813E7;0.1132901
1.859375E7;0.1131658
1.860938E7;0.1130415
1.8625E7;0.1129174
1.864063E7;0.1127933
1.865625E7;0.1126694
1.867188E7;0.1125455
1.86875E7;0.1124218
1.870313E7;0.1122981
1.871875E7;0.1121746
1.873438E7;0.1120511
1.875E7;0.1119278
1.876563E7;0.1118045
1.878125E7;0.1116814
1.879688E7;0.1115584
1.88125E7;0.1114355
1.882813E7;0.1113126
1.884375E7;0.11119
1.885938E7;0.1110673
1.8875E7;0.1109448
1.889063E7;0.1108224
1.890625E7;0.1107001
1.892188E7;0.1105778
1.89375E7;0.1104558
1.895313E7;0.1103337
1.896875E7;0.1102118
1.898438E7;0.11009
1.9E7;0.1099683
1.903125E7;0.1097252
1.90625E7;0.1094825
1.909375E7;0.1092401
1.9125E7;0.1089982
1.915625E7;0.1087567
1.91875E7;0.1085155
1.921875E7;0.1082748
1.925E7;0.1080344
1.928125E7;0.1077945
1.93125E7;0.1075549
1.934375E7;0.1073157
1.9375E7;0.1070769
1.940625E7;0.1068385
1.94375E7;0.1066004
1.946875E7;0.1063628
1.95E7;0.1061255
1.953125E7;0.1058886
1.95625E7;0.1056521
1.959375E7;0.105416
1.9625E7;0.1051802
1.965625E7;0.1049448
1.96875E7;0.1047098
1.971875E7;0.1044752
1.975E7;0.1042409
1.978125E7;0.104007
1.98125E7;0.1037735
1.984375E7;0.1035403
1.9875E7;0.1033075
1.990625E7;0.1030751
1.99375E7;0.102843
